Roll (deg),Pitch (deg),Yaw (deg),Altitude (m),Yaw Angle to Target (deg),Pitch Angle to Target (deg),Velocity X-Axis,Altitude_change,Pitch Rate [rad/s],Yaw Rate [rad/s],Roll Rate [rad/s]
0.4784684,1.5799934,0.036924,304.6629,33.948566,-45.0,99.53223,-4.012329,0.086978436,0.26488972,0.005911827
1.6686288,4.8168473,0.18844491,304.3705,33.840416,-45.0,98.49365,-5.1332245,0.114910126,0.26917982,0.010277748
3.0053241,7.355581,0.42746052,304.06836,33.64458,-45.0,97.28467,-4.6492767,0.11200094,0.158391,0.013765335
4.2509184,8.550816,0.6801502,303.81113,33.434704,-45.0,96.32837,-3.786972,0.098368645,0.049892426,0.017398834
5.3250475,8.749417,0.920969,303.6034,33.236107,-45.0,95.6062,-3.072281,0.08236599,-0.007916927,0.021849632
6.222452,8.536111,1.1811992,303.43042,33.017513,-45.0,94.95874,-2.6518097,0.067296505,-0.02011156,0.027231216
6.9656043,8.309922,1.5042535,303.27475,32.73548,-45.0,94.286865,-2.4910126,0.05414009,-0.010254383,0.03331089
7.580649,8.209395,1.9142834,303.123,32.365738,-45.0,93.5686,-2.5129395,0.042999268,0.002096653,0.039726257
8.090331,8.203904,2.4120402,302.96646,31.907555,-45.0,92.82544,-2.6319122,0.033671856,0.0077824593,0.046093464
8.513079,8.210502,2.98482,302.80103,31.373611,-45.0,92.086426,-2.8054657,0.026029587,0.006541252,0.052084923
8.865408,8.165511,3.6172953,302.62314,30.779207,-45.0,91.370605,-3.0412445,0.019984245,0.0012693405,0.05745554
9.161606,8.040273,4.2958198,302.42886,30.137949,-45.0,90.69141,-3.3444977,0.015293598,-0.005129814,0.06202984
9.41297,7.8341994,5.009547,302.21387,29.46068,-45.0,90.05469,-3.7202148,0.0116529465,-0.010871887,0.06571007
9.627342,7.560493,5.7492566,301.9738,28.756653,-45.0,89.46265,-4.168625,0.008738518,-0.015389919,0.06846523
9.809381,7.23457,6.5063148,301.70422,28.034496,-45.0,88.91675,-4.6852417,0.006257057,-0.01884222,0.07031584
9.960916,6.8685675,7.2722797,301.4013,27.302574,-45.0,88.41919,-5.262665,0.003976345,-0.02160883,0.0713315
10.081823,6.470402,8.0392275,301.06152,26.568914,-45.0,87.97241,-5.8924866,0.0017361641,-0.023995876,0.07161236
10.170889,6.04525,8.800042,300.68198,25.840557,-45.0,87.5791,-6.5664062,-0.0005545616,-0.026141644,0.07127714
10.226486,5.597306,9.549109,300.2602,25.123224,-45.0,87.24194,-7.2765656,-0.0029315948,-0.028050423,0.07044935
10.247182,5.130872,10.282275,299.7942,24.421013,44.999996,86.96216,-8.015518,-0.0053863525,-0.029661655,0.0692544
10.564363,5.1817365,11.091722,299.27695,23.641756,44.999996,86.51465,-8.924606,0.05151701,0.06736803,0.06702566
11.384326,5.9825144,12.01728,298.71255,22.745607,44.999996,85.87158,-9.538498,0.073599815,0.09072304,0.063996315
12.331742,6.7460885,12.917881,298.12,21.873543,44.999996,85.23779,-9.864883,0.07252169,0.06489897,0.06157112
13.197974,7.124645,13.72547,297.51254,21.093508,44.999996,84.731445,-10.055542,0.060274124,0.027645588,0.0605855
13.890145,7.1174326,14.445631,296.894,20.399876,44.999996,84.36548,-10.24585,0.043982983,0.00044250488,0.06140566
14.387397,6.8753295,15.127639,296.26147,19.743248,44.999996,84.08838,-10.52475,0.02767086,-0.011351585,0.064026356
14.705669,6.5495157,15.826873,295.60876,19.068289,44.999996,83.85254,-10.90271,0.013232231,-0.012212753,0.068161964
14.87428,6.225758,16.581308,294.93082,18.337034,44.999996,83.63794,-11.347183,0.0013685226,-0.008535862,0.07337284
14.925179,5.9281187,17.407883,294.22458,17.532549,44.999996,83.44287,-11.827576,-0.0077605247,-0.004822254,0.07917023
14.888924,5.645417,18.30813,293.48853,16.65323,44.999996,83.27515,-12.320938,-0.014276981,-0.0029659271,0.085075855
14.792659,5.3575387,19.27564,292.72238,15.705596,44.999996,83.14453,-12.815018,-0.018455505,-0.0029258728,0.090662
14.659497,5.0510473,20.300905,291.92618,14.699085,44.999996,83.056885,-13.305389,-0.020676613,-0.0038084984,0.09557581
14.507635,4.7236357,21.373833,291.10025,13.643835,44.999996,83.01367,-13.790527,-0.021393776,-0.0047044754,0.09954977
14.349995,4.3817506,22.483889,290.24496,12.550404,44.999996,83.012695,-14.26796,-0.021091938,-0.0050406456,0.10241175
14.194416,4.036416,23.620132,289.36084,11.429638,44.999996,83.05005,-14.736664,-0.020226002,-0.004643917,0.104074955
14.044139,3.6986496,24.771128,288.4485,10.293122,44.999996,83.12134,-15.193619,-0.019200802,-0.0036478043,0.10453367
13.898546,3.3772347,25.925034,287.50876,9.152549,44.999996,83.22241,-15.634384,-0.018337727,-0.0022759438,0.10385084
13.754279,3.078284,27.070415,286.54276,8.019393,44.999996,83.3501,-16.054276,-0.017865181,-0.00071048737,0.10214138
13.6061325,2.8059576,28.196972,285.5519,6.9040093,44.999996,83.501465,-16.448853,-0.01791811,0.0009498596,0.099559784
13.448123,2.5632129,29.296005,284.53787,5.8150454,44.999996,83.67383,-16.81424,-0.018548965,0.0026693344,0.09628105
13.274213,2.3524127,30.360777,283.50256,4.7592072,44.999996,83.86377,-17.146988,-0.019740582,0.0044460297,0.09249115
13.07783,2.1754355,31.386658,282.44803,3.7412086,44.999996,84.06836,-17.443985,-0.021637917,0.006272316,0.08837557
12.851615,2.0335453,32.370834,281.37656,2.763754,44.999996,84.283936,-17.702347,-0.024233341,0.008127689,0.08410454
12.590565,1.9273359,33.31228,280.29056,1.827936,44.999996,84.50708,-17.919464,-0.02710247,0.00997591,0.07982111
12.29404,1.8566912,34.211117,279.19266,0.9336185,44.999996,84.73413,-18.09311,-0.029930115,0.011787415,0.07562733
11.964415,1.8208122,35.068375,278.08554,0.07977661,44.999996,84.961914,-18.22168,-0.032505035,0.013534069,0.071596146
11.605911,1.8184421,35.885635,276.97202,-0.7350922,44.999996,85.18701,-18.304214,-0.03469467,0.01519537,0.067771435
11.223886,1.8479007,36.66477,275.85483,-1.5129005,44.999996,85.406006,-18.340485,-0.03642559,0.016756058,0.06417704
10.824196,1.9073098,37.407757,274.73685,-2.2556288,44.999996,85.61621,-18.330948,-0.03766966,0.018209934,0.060816765
10.412745,1.9945791,38.11662,273.62082,-2.965231,44.999996,85.81445,-18.276764,-0.038433075,0.019546509,0.057683945
9.995107,2.1075435,38.793217,272.5094,-3.6435506,44.999996,85.99805,-18.179688,-0.038746834,0.020755291,0.054759502
9.576471,2.243874,39.439205,271.40515,-4.2922273,44.999996,86.16528,-18.042023,-0.03865862,0.02182722,0.05202341
9.16125,2.4012349,40.056038,270.3105,-4.9126544,44.999996,86.313965,-17.866577,-0.03822708,0.02275753,0.04945135
8.753078,2.5772352,40.64495,269.22757,-5.506061,44.999996,86.44165,-17.656555,-0.037516117,0.023540974,0.04701996
8.354905,2.7695117,41.206966,268.15842,-6.073431,44.999996,86.54761,-17.415451,-0.036588192,0.024172306,0.044709206
7.968863,2.9756196,41.742985,267.10483,-6.6156116,44.999996,86.630615,-17.147018,-0.03551483,0.024647236,0.042501926
7.594965,3.193168,42.253735,266.0683,-7.13334,44.999996,86.6897,-16.855194,-0.03458357,0.024959564,0.040391445
7.232009,3.4197185,42.740017,265.0502,-7.6273127,44.999996,86.72412,-16.543976,-0.033694267,0.025103092,0.03836918
6.879776,3.6528056,43.20242,264.05157,-8.098172,44.999996,86.73413,-16.217438,-0.03278494,0.02507639,0.036425114
6.538553,3.8900316,43.6416,263.0732,-8.546493,44.999996,86.71924,-15.879684,-0.03183317,0.024877548,0.034550667
6.2087097,4.129013,44.05808,262.11566,-8.972751,44.999996,86.67993,-15.534775,-0.030837536,0.024514675,0.032735825
5.8905325,4.367523,44.45233,261.17926,-9.377426,44.999996,86.616455,-15.186768,-0.029808521,0.023992538,0.030975342
5.5842123,4.603397,44.824863,260.26407,-9.760955,44.999996,86.53003,-14.839539,-0.028760433,0.023315907,0.029264927
5.2896533,4.834551,45.176125,259.36993,-10.123775,44.999996,86.42114,-14.496811,-0.0277071,0.02249527,0.027602673
5.0067334,5.0590525,45.506653,258.49646,-10.466376,44.999996,86.291016,-14.16214,-0.026661396,0.021535873,0.025990963
4.7351513,5.2750435,45.816975,257.64304,-10.789294,44.999996,86.14111,-13.838837,-0.025632858,0.020446777,0.024429798
4.474525,5.480817,46.107735,256.80893,-11.093074,44.999996,85.9729,-13.529953,-0.024627686,0.019238472,0.02292347
4.2244306,5.6747737,46.379536,255.99313,-11.378385,44.999996,85.78784,-13.238266,-0.023649693,0.017921448,0.021474361
3.9844725,5.855487,46.633167,255.19452,-11.645882,44.999996,85.58765,-12.966263,-0.02269888,0.016509056,0.020084858
3.754186,6.0216856,46.869343,254.41182,-11.896331,44.999996,85.37451,-12.7161255,-0.021775246,0.015012264,0.018757343
3.5332568,6.172264,47.088863,253.64366,-12.130484,44.999996,85.1499,-12.489746,-0.020876408,0.013443947,0.017492294
3.3213022,6.306279,47.292583,252.88857,-12.349132,44.999996,84.916016,-12.288635,-0.01999998,0.011820316,0.016291618
3.1180632,6.422966,47.48126,252.14487,-12.5530815,44.999996,84.67505,-12.114044,-0.019143105,0.01015377,0.015152454
2.9232662,6.521758,47.65577,251.41106,-12.743124,44.999996,84.428955,-11.966858,-0.018303871,0.008459568,0.014073849
2.736761,6.6022587,47.816883,250.6853,-12.92004,44.999996,84.17993,-11.847656,-0.017479897,0.006752491,0.01305294
2.5583155,6.664256,47.965412,249.96599,-13.084579,44.999996,83.92969,-11.756729,-0.016670227,0.005045891,0.012087822
2.387834,6.7077303,48.102028,249.25134,-13.237466,44.999996,83.68042,-11.694046,-0.01587534,0.0033569336,0.011173248
2.225139,6.732852,48.227444,248.53969,-13.379384,44.999996,83.43408,-11.6592865,-0.01509428,0.0017004013,0.0103058815
2.0701072,6.739921,48.34237,247.82928,-13.510946,44.999996,83.19287,-11.651871,-0.014328957,8.773804e-05,0.009482384
1.9225888,6.7294707,48.44735,247.11853,-13.632743,44.999996,82.95801,-11.670959,-0.013580322,-0.0014657974,0.008700371
1.7823788,6.702143,48.542946,246.40584,-13.745332,44.999996,82.731445,-11.7155,-0.012849808,-0.0029473305,0.007955074
1.6493677,6.658778,48.62969,245.6897,-13.849218,44.999996,82.51489,-11.784195,-0.012138844,-0.0043444633,0.007244587
1.5233233,6.600319,48.70807,244.96863,-13.944882,44.999996,82.30957,-11.87558,-0.01144886,-0.005646229,0.006565094
1.4040546,6.527871,48.778545,244.24136,-14.032732,44.999996,82.11694,-11.988007,-0.010781765,-0.006842613,0.0059165955
1.2913702,6.442637,48.841507,243.50667,-14.113192,44.999996,81.937744,-12.11969,-0.010138035,-0.007924557,0.0052957535
1.1849967,6.3459215,48.89735,242.76337,-14.186657,44.999996,81.77295,-12.268692,-0.009518623,-0.008883476,0.004703045
1.0847979,6.239152,48.946472,242.01053,-14.253497,44.999996,81.62402,-12.433029,-0.008924484,-0.009714127,0.004137039
0.9904184,6.123763,48.989216,241.24724,-14.31404,44.999996,81.49097,-12.61058,-0.008355141,-0.010410309,0.0035967827
0.9017625,6.001291,49.025932,240.4728,-14.368654,44.999996,81.37402,-12.79921,-0.007810116,-0.010969162,0.0030827522
0.8184752,5.87332,49.056942,239.68658,-14.417641,44.999996,81.273926,-12.996719,-0.0072898865,-0.011388779,0.002594471
0.74046075,5.741375,49.082584,238.8881,-14.46134,44.999996,81.19043,-13.200928,-0.006793022,-0.011668682,0.0021324158
0.6674461,5.607059,49.103184,238.07704,-14.500068,44.999996,81.12329,-13.409622,-0.006318569,-0.011809826,0.0016956329
0.5991988,5.4719443,49.11903,237.25313,-14.534137,44.999996,81.07251,-13.620651,-0.0058660507,-0.011815071,0.0012860298
0.5356097,5.337533,49.13049,236.4164,-14.563834,44.999996,81.0376,-13.831894,-0.0054340363,-0.011687756,0.00090169907
0.47641933,5.2053003,49.137814,235.56679,-14.589488,44.999996,81.01758,-14.041306,-0.0050210953,-0.011434555,0.00054359436
0.42153195,5.0766473,49.141308,234.70453,-14.611385,44.999996,81.01245,-14.246902,-0.004626274,-0.011061192,0.00021219254
0.370729,4.9529047,49.14128,233.82991,-14.629813,44.999996,81.02026,-14.446808,-0.004249096,-0.010575771,-9.346008e-05
0.32388756,4.8352957,49.13803,232.9433,-14.645072,44.999996,81.041504,-14.639252,-0.0038881302,-0.009987354,-0.0003733635
0.2808437,4.724933,49.13183,232.04526,-14.657421,44.999996,81.07373,-14.822662,-0.0035424232,-0.009305,-0.0006284714
0.24150181,4.622897,49.12292,231.13629,-14.667148,44.999996,81.11621,-14.997406,-0.0032057762,-0.0085392,-0.0008573532
0.20580725,4.529788,49.111626,230.21695,-14.674538,44.999996,81.16699,-15.162811,-0.002878189,-0.007748604,-0.0010609627
0.17360973,4.445763,49.098225,229.28786,-14.679865,44.999996,81.225586,-15.31749,-0.002562523,-0.0069594383,-0.0012402534
0.14484099,4.3707676,49.08294,228.34969,-14.683376,44.999996,81.291016,-15.460266,-0.002260685,-0.0061655045,-0.0013957024
0.11935072,4.3049655,49.066055,227.40317,-14.685329,44.999996,81.362305,-15.5902405,-0.0019726753,-0.0053505898,-0.0015287399
0.09698868,4.2486644,49.04779,226.44919,-14.685971,44.999996,81.43799,-15.70668,-0.0016989708,-0.0045027733,-0.0016403198
0.07761826,4.20226,49.028393,225.48848,-14.68552,44.999996,81.517334,-15.809006,-0.0014386177,-0.0036206245,-0.0017318726
0.061116528,4.1660533,49.008095,224.52202,-14.684209,44.999996,81.59912,-15.89682,-0.0011920929,-0.0027275085,-0.0018043518
0.047264908,4.1400027,48.98704,223.55064,-14.682215,44.999996,81.68262,-15.969894,-0.0009589195,-0.0018467903,-0.0018596649
0.036022417,4.1240134,48.96549,222.57524,-14.6797285,44.999996,81.7666,-16.028046,-0.00073957443,-0.00096702576,-0.0018992424
0.027184151,4.1181054,48.94355,221.59677,-14.6769285,44.999996,81.8501,-16.07129,-0.0005340576,-8.773804e-05,-0.0019240379
0.02059985,4.1222305,48.921406,220.61613,-14.673978,44.999996,81.931885,-16.099747,-0.00034236908,0.0007824898,-0.0019340515
0.016119245,4.136212,48.89922,219.63417,-14.671027,44.999996,82.01099,-16.113693,-0.00016498566,0.0016288757,-0.0019311905
0.013578415,4.159701,48.877117,218.65182,-14.668226,44.999996,82.086426,-16.11354,-9.536743e-07,0.0024380684,-0.0019154549
0.012868076,4.192199,48.8553,217.6699,-14.665713,44.999996,82.15723,-16.099854,0.00014972687,0.0031981468,-0.001888752
0.013837962,4.233119,48.833813,216.68916,-14.6636095,44.999996,82.22266,-16.073334,0.00028848648,0.0039014816,-0.0018510818
0.016324151,4.28177,48.812817,215.71046,-14.662039,44.999996,82.28174,-16.034775,0.00041341782,0.0045433044,-0.0018043518
0.020217359,4.337443,48.792408,214.73444,-14.661096,44.999996,82.33472,-15.985107,0.0005273819,0.005121708,-0.0017490387
0.025367321,4.3993793,48.772686,213.76175,-14.660877,44.999996,82.38037,-15.925369,0.0006289482,0.0056319237,-0.001686573
0.031623773,4.466793,48.753723,212.793,-14.661465,44.999996,82.4187,-15.856644,0.00072050095,0.0060720444,-0.0016174316
0.03894574,4.538886,48.735584,211.82864,-14.662927,44.999996,82.448975,-15.78009,0.00080156326,0.00644207,-0.001543045
0.047169283,4.614824,48.71833,210.86919,-14.665303,44.999996,82.47119,-15.696884,0.0008711815,0.0067386627,-0.0014643669
0.056198794,4.693767,48.702045,209.91498,-14.668677,44.999996,82.48511,-15.608292,0.00093078613,0.0069622993,-0.0013818741
0.06589766,4.774903,48.686707,208.96631,-14.673062,44.999996,82.49121,-15.515549,0.0009818077,0.007112026,-0.0012969971
0.07619759,4.8573637,48.672375,208.02339,-14.678472,44.999996,82.48877,-15.419891,0.0010232925,0.0071907043,-0.0012102127
0.08696196,4.940337,48.65907,207.08635,-14.684947,44.999996,82.47876,-15.322556,0.0010552406,0.0071988106,-0.0011219978
0.09816347,5.0230713,48.64679,206.15524,-14.692501,44.999996,82.46069,-15.224777,0.0010795593,0.007139683,-0.0010333061
0.10965185,5.104767,48.635548,205.23012,-14.701107,44.999996,82.4353,-15.127686,0.001095295,0.007016182,-0.00094509125
0.12131781,5.1847415,48.625317,204.31084,-14.710778,44.999996,82.40283,-15.03244,0.0011034012,0.0068325996,-0.0008573532
0.1331477,5.262312,48.616108,203.39728,-14.721488,44.999996,82.36401,-14.940063,0.0011048317,0.0065927505,-0.0007710457
0.14505956,5.336843,48.607887,202.48926,-14.733236,44.999996,82.31885,-14.8515625,0.0011000633,0.006300926,-0.00068616867
0.15691675,5.4077816,48.600647,201.58649,-14.745981,44.999996,82.26807,-14.767838,0.0010890961,0.005962372,-0.000603199
0.16871932,5.474622,48.59435,200.68866,-14.759724,44.999996,82.2124,-14.689682,0.0010724068,0.0055832863,-0.0005226135
0.18039894,5.5369267,48.58894,199.79536,-14.774395,44.999996,82.15234,-14.617844,0.0010523796,0.0051665306,-0.00044441223
0.19190098,5.59428,48.584457,198.9063,-14.789995,44.999996,82.08862,-14.552933,0.0010271072,0.0047211647,-0.00036907196
0.20314348,5.6464148,48.580795,198.02094,-14.80647,44.999996,82.02197,-14.495468,0.000998497,0.0042505264,-0.0002965927
0.21415374,5.693044,48.57794,197.13884,-14.823777,44.999996,81.95264,-14.445892,0.00096702576,0.0037622452,-0.00022697449
0.22480883,5.734005,48.57585,196.25949,-14.841905,44.999996,81.881836,-14.404495,0.0009326935,0.0032610893,-0.00016069412
0.23517706,5.7691875,48.5745,195.38248,-14.860784,44.999996,81.809814,-14.3714905,0.000895977,0.0027532578,-9.775162e-05
0.24517646,5.798537,48.573856,194.50716,-14.8804,44.999996,81.73755,-14.347,0.0008583069,0.0022449493,-3.8146973e-05
0.25480703,5.82208,48.573845,193.63309,-14.900685,44.999996,81.66553,-14.331039,0.00081920624,0.0017409325,1.8119812e-05
0.26404142,5.8399,48.574444,192.75975,-14.921627,44.999996,81.59424,-14.323517,0.00077962875,0.0012469292,7.104874e-05
0.2728797,5.852126,48.575592,191.88658,-14.943169,44.999996,81.52466,-14.324265,0.0007390976,0.0007686615,0.0001206398
0.28130814,5.858977,48.577286,191.01315,-14.965285,44.999996,81.45679,-14.333023,0.0006995201,0.00030946732,0.000166893
0.28934047,5.860691,48.579487,190.13893,-14.987921,44.999996,81.39136,-14.349442,0.0006599426,-0.00012540817,0.00021028519
0.2969493,5.8575563,48.582134,189.26352,-15.011061,44.999996,81.3291,-14.373123,0.000620842,-0.00053167343,0.0002503395
0.3041893,5.849954,48.585197,188.38641,-15.034666,44.999996,81.27026,-14.403595,0.000582695,-0.00090646744,0.00028705597
0.31099215,5.838227,48.58864,187.50728,-15.058695,44.999996,81.2146,-14.440338,0.0005455017,-0.0012464523,0.00032043457
0.31743985,5.822784,48.592434,186.62572,-15.083119,44.999996,81.163574,-14.482742,0.0005092621,-0.0015487671,0.00035190582
0.3234914,5.80411,48.59659,185.74142,-15.107913,44.999996,81.1167,-14.530212,0.0004749298,-0.0018119812,0.00038051605
0.32922876,5.782615,48.600986,184.8541,-15.133048,44.999996,81.073975,-14.582108,0.00044202805,-0.0020337105,0.00040578842
0.33458364,5.7588124,48.605686,183.96347,-15.158511,44.999996,81.03613,-14.637711,0.00040960312,-0.002213478,0.00043010712
0.33963796,5.733158,48.61059,183.06941,-15.184261,44.999996,81.00293,-14.696381,0.00037956238,-0.0023508072,0.00045108795
0.34435079,5.7061653,48.61577,182.17165,-15.210284,44.999996,80.97412,-14.757385,0.000351429,-0.002445221,0.0004696846
0.34877676,5.678298,48.621136,181.27013,-15.236567,44.999996,80.94995,-14.820023,0.00032520294,-0.002497673,0.00048685074
0.35291585,5.6500754,48.62664,180.36476,-15.263082,44.999996,80.930664,-14.883621,0.00029945374,-0.0025091171,0.0005016327
0.3567954,5.6219077,48.632378,179.45549,-15.289828,44.999996,80.91553,-14.94751,0.00027656555,-0.002480507,0.0005159378
0.36042905,5.59428,48.63821,178.54237,-15.316767,44.999996,80.904785,-15.011017,0.00025558472,-0.0024137497,0.00052785873
0.3638305,5.567608,48.644196,177.62535,-15.343924,44.999996,80.89819,-15.073532,0.00023508072,-0.0023112297,0.00053834915
0.367027,5.5422816,48.65033,176.70459,-15.371258,44.999996,80.89526,-15.134445,0.00021648407,-0.002175331,0.00054883957
0.37001866,5.5186763,48.65656,175.78018,-15.398784,44.999996,80.89575,-15.193237,0.00019931793,-0.002008915,0.00055742264
0.3728327,5.4971204,48.662884,174.85231,-15.426474,44.999996,80.899414,-15.249374,0.0001835823,-0.0018153191,0.00056552887
0.3754828,5.4779205,48.669342,173.92105,-15.454327,44.999996,80.906006,-15.302399,0.00016832352,-0.0015969276,0.00057315826
0.37798265,5.46133,48.675888,172.98668,-15.482344,44.999996,80.91504,-15.351913,0.00015592575,-0.0013580322,0.0005788803
0.38033223,5.447574,48.682526,172.04941,-15.510526,44.999996,80.92627,-15.3975525,0.00014400482,-0.0011014938,0.0005850792
0.38257253,5.4368234,48.68923,171.1095,-15.538871,44.999996,80.938965,-15.439026,0.00013160706,-0.00083112717,0.00059080124
0.3846899,5.429208,48.696037,170.16714,-15.567352,44.999996,80.95386,-15.47612,0.00012302399,-0.0005636215,0.0005955696
0.38671163,5.4244814,48.70288,169.22272,-15.595984,44.999996,80.970215,-15.508728,0.00011444092,-0.00032424927,0.00059843063
0.38863775,5.4225006,48.70982,168.27643,-15.624726,44.999996,80.98828,-15.536697,0.00010728836,-7.9631805e-05,0.0005993843
